100
Detector Model: 818E
Detector SN: 194976
IDN: NEWPORT 1918-R v1.0.0 01/07/11 13098
Wavelength: 532
Attenuator Status: Off
Range Mode: Auto
Store Interval: 1
Analog Filter: 12.5kHz
Digital Filter: 0
Mode: Pulse Continuous
Responsivity: 9.595313E+001
Units: J
End of Header
5.758961E-004
6.003718E-004
5.271172E-004
5.502235E-004
5.776815E-004
6.146068E-004
5.404579E-004
5.715920E-004
5.294604E-004
5.991539E-004
5.735514E-004
5.833725E-004
5.506732E-004
5.432493E-004
5.279572E-004
5.711761E-004
6.694673E-004
5.820587E-004
4.957630E-004
5.193029E-004
5.114888E-004
5.149001E-004
5.119127E-004
4.924298E-004
5.188328E-004
5.389518E-004
5.261353E-004
5.241985E-004
5.009568E-004
4.965460E-004
5.432479E-004
5.561982E-004
5.802083E-004
5.322423E-004
5.769021E-004
5.389788E-004
5.136440E-004
5.424524E-004
5.678764E-004
5.515928E-004
5.521156E-004
6.021397E-004
5.953871E-004
5.184534E-004
5.692999E-004
5.579215E-004
5.307054E-004
5.313847E-004
5.882345E-004
5.874025E-004
5.606888E-004
5.948373E-004
5.634210E-004
5.381915E-004
6.235148E-004
5.851419E-004
5.534163E-004
5.149894E-004
5.857699E-004
5.350732E-004
5.956978E-004
5.686127E-004
5.495714E-004
5.987028E-004
5.460437E-004
5.868220E-004
5.683911E-004
5.370977E-004
5.395557E-004
5.851945E-004
5.433547E-004
6.654087E-004
5.599935E-004
5.345519E-004
6.137748E-004
5.392881E-004
5.363183E-004
5.744646E-004
5.292835E-004
5.645287E-004
5.215043E-004
4.981303E-004
5.079515E-004
5.228291E-004
5.110281E-004
5.506315E-004
5.006315E-004
4.881228E-004
4.941501E-004
4.508597E-004
5.229936E-004
5.365895E-004
5.360076E-004
5.466081E-004
5.746832E-004
5.735163E-004
6.366341E-004
5.565711E-004
5.955640E-004
5.743658E-004
End of Data
